Time (s),Voltage (V)
0.000000000000000000e+00,6.315529284888818040e+00
4.000640102416386430e-05,6.601214107190435776e+00
8.001280204832772859e-05,6.803578846049062712e+00
1.200192030724915929e-04,6.834227239506416751e+00
1.600256040966554572e-04,6.661715782972452260e+00
2.000320051208193215e-04,6.316536926336558722e+00
2.400384061449831858e-04,5.871628451375552338e+00
2.800448071691470772e-04,5.408660578533755370e+00
3.200512081933109144e-04,4.985838534805595579e+00
3.600576092174748058e-04,4.620908032336664029e+00
4.000640102416386430e-04,4.294866369674186224e+00
4.400704112658025344e-04,3.971835363335593616e+00
4.800768122899663716e-04,3.623559567484049726e+00
5.200832133141302088e-04,3.246164743678566111e+00
5.600896143382941544e-04,2.862025248893224738e+00
6.000960153624579916e-04,2.507756715838715955e+00
6.401024163866218288e-04,2.216159550185824223e+00
6.801088174107857744e-04,2.002106576359071965e+00
7.201152184349496116e-04,1.859228873964849482e+00
7.601216194591134487e-04,1.767903819217751415e+00
8.001280204832772859e-04,1.709061839395909610e+00
8.401344215074412316e-04,1.675792167472419214e+00
8.801408225316050687e-04,1.676673736917343893e+00
9.201472235557689059e-04,1.729771832075563953e+00
9.601536245799327431e-04,1.851394943819507644e+00
1.000160025604096689e-03,2.046222226910840991e+00
1.040166426628260418e-03,2.304138110010024665e+00
1.080172827652424363e-03,2.605024488887186518e+00
1.120179228676588309e-03,2.928294629267754967e+00
1.160185629700752038e-03,3.261576085630000676e+00
1.200192030724915983e-03,3.603822808104701902e+00
1.240198431749079929e-03,3.961560252375961877e+00
1.280204832773243658e-03,4.340883890223070196e+00
1.320211233797407603e-03,4.740039740087640396e+00
1.360217634821571549e-03,5.146793785109385233e+00
1.400224035845735278e-03,5.541860929889501186e+00
1.440230436869899223e-03,5.906186780515964685e+00
1.480236837894062952e-03,6.227832201564714509e+00
1.520243238918226897e-03,6.504666873221542467e+00
1.560249639942390843e-03,6.741643289115695659e+00
1.600256040966554572e-03,6.944544024218045841e+00
1.640262441990718517e-03,7.113986821083148726e+00
1.680268843014882463e-03,7.243129120896663942e+00
1.720275244039046192e-03,7.320239088324094645e+00
1.760281645063210137e-03,7.334472241191957842e+00
1.800288046087374083e-03,7.281438124583098137e+00
1.840294447111537812e-03,7.165405500656924609e+00
1.880300848135701757e-03,6.997037484590029166e+00
1.920307249159865486e-03,6.788132329571299195e+00
1.960313650184029432e-03,6.546479412569672363e+00
2.000320051208193377e-03,6.273734068786954055e+00
2.040326452232357323e-03,5.967362369456641780e+00
2.080332853256520835e-03,5.625329918433260801e+00
2.120339254280684781e-03,5.250683650849467199e+00
2.160345655304848726e-03,4.853339857200813512e+00
2.200352056329012672e-03,4.448087232546535041e+00
2.240358457353176617e-03,4.050014593517810013e+00
2.280364858377340563e-03,3.670002091405134781e+00
2.320371259401504075e-03,3.312782452717554893e+00
2.360377660425668021e-03,2.978516108849411648e+00
2.400384061449831966e-03,2.666775969757843257e+00
2.440390462473995912e-03,2.380494443029077534e+00
2.480396863498159857e-03,2.127533462965975897e+00
2.520403264522323369e-03,1.918987540380647117e+00
2.560409665546487315e-03,1.765244523029523727e+00
2.600416066570651261e-03,1.672094349085590625e+00
2.640422467594815206e-03,1.639085883904798147e+00
2.680428868618979152e-03,1.660979786461597385e+00
2.720435269643143097e-03,1.731347134939265064e+00
2.760441670667306609e-03,1.846166789047932300e+00
2.800448071691470555e-03,2.005349676555144178e+00
2.840454472715634501e-03,2.211384582540387722e+00
2.880460873739798446e-03,2.465993786896242046e+00
2.920467274763962392e-03,2.766820066741206396e+00
2.960473675788125904e-03,3.106101794211564737e+00
3.000480076812289849e-03,3.472100456242981359e+00
3.040486477836453795e-03,3.852443010936156487e+00
3.080492878860617741e-03,4.237464801767629297e+00
3.120499279884781686e-03,4.621694291841198066e+00
3.160505680908945632e-03,5.002746774081007430e+00
3.200512081933109144e-03,5.378412786908850940e+00
3.240518482957273089e-03,5.743751389491205117e+00
3.280524883981437035e-03,6.089949604886336409e+00
3.320531285005600981e-03,6.405642235818578278e+00
3.360537686029764926e-03,6.679942575692138895e+00
3.400544087053928438e-03,6.905457822027641690e+00
3.440550488078092384e-03,7.079606683525593525e+00
3.480556889102256329e-03,7.203571359746476332e+00
3.520563290126420275e-03,7.279592317554930858e+00
3.560569691150584221e-03,7.308247837608939257e+00
3.600576092174748166e-03,7.287321430570252723e+00
3.640582493198911678e-03,7.212893692038808702e+00
3.680588894223075624e-03,7.081981379462430226e+00
3.720595295247239569e-03,6.895153859054234502e+00
3.760601696271403515e-03,6.657593348565695734e+00
3.800608097295567461e-03,6.377989602552633919e+00
3.840614498319730973e-03,6.065917708264732866e+00
3.880620899343894918e-03,5.729203866434223968e+00
3.920627300368058864e-03,5.372751012098259338e+00
3.960633701392222809e-03,4.999411692834967447e+00
4.000640102416386755e-03,4.612290010997908141e+00
4.040646503440550701e-03,4.217033120810643076e+00
4.080652904464714646e-03,3.822704211072748937e+00
4.120659305488878592e-03,3.440677895507350925e+00
4.160665706513041670e-03,3.082157026549719347e+00
4.200672107537205616e-03,2.755699452242898584e+00
4.240678508561369561e-03,2.466113339863571063e+00
4.280684909585533507e-03,2.215263432657673004e+00
4.320691310609697453e-03,2.004216459416016782e+00
4.360697711633861398e-03,1.835393889201919038e+00
4.400704112658025344e-03,1.713428641541920427e+00
4.440710513682189289e-03,1.644207989389683933e+00
4.480716914706353235e-03,1.632657635912878380e+00
4.520723315730517181e-03,1.680553628066806526e+00
4.560729716754681126e-03,1.785620508116651184e+00
4.600736117778844204e-03,1.942415660063474769e+00
4.640742518803008150e-03,2.144464338729993980e+00
4.680748919827172096e-03,2.386403419074093257e+00
4.720755320851336041e-03,2.664918895066153759e+00
4.760761721875499987e-03,2.977994073395962005e+00
4.800768122899663932e-03,3.322984786192101581e+00
4.840774523923827878e-03,3.694719403654672440e+00
4.880780924947991824e-03,4.084794149491714599e+00
4.920787325972155769e-03,4.482525726204786842e+00
4.960793726996319715e-03,4.877056463030836397e+00
5.000800128020483661e-03,5.259448211045127941e+00
5.040806529044646739e-03,5.623628049299216336e+00
5.080812930068810684e-03,5.965734851060644495e+00
5.120819331092974630e-03,6.282351513361424722e+00
5.160825732117138576e-03,6.568745136682833774e+00
5.200832133141302521e-03,6.818210698862452013e+00
5.240838534165466467e-03,7.022948803890845859e+00
5.280844935189630412e-03,7.176001648465479832e+00
5.320851336213794358e-03,7.273154521771973080e+00
5.360857737237958304e-03,7.313737491667839485e+00
5.400864138262122249e-03,7.299907960983179400e+00
5.440870539286286195e-03,7.234874547531327416e+00
5.480876940310449273e-03,7.121121088975598035e+00
5.520883341334613219e-03,6.959662707100850554e+00
5.560889742358777164e-03,6.750738814116872710e+00
5.600896143382941110e-03,6.495494588910874612e+00
5.640902544407105056e-03,6.197622932657657735e+00
5.680908945431269001e-03,5.863966803098839442e+00
5.720915346455432947e-03,5.503692416777758112e+00
5.760921747479596892e-03,5.126473582069188240e+00
5.800928148503760838e-03,4.740690392473122294e+00
5.840934549527924784e-03,4.352617765182692722e+00
5.880940950552088729e-03,3.966985300633076417e+00
5.920947351576251808e-03,3.588483411225828590e+00
5.960953752600415753e-03,3.223244222593145025e+00
6.000960153624579699e-03,2.879354095380159961e+00
6.040966554648743644e-03,2.566033481852830533e+00
6.080972955672907590e-03,2.291904668539312073e+00
6.120979356697071536e-03,2.063298830328227584e+00
6.160985757721235481e-03,1.883524769620997130e+00
6.200992158745399427e-03,1.753456887064235081e+00
6.240998559769563372e-03,1.673035205807822168e+00
6.281004960793727318e-03,1.642753583137139373e+00
6.321011361817891264e-03,1.664241242890212025e+00
6.361017762842054342e-03,1.739593378764961118e+00
6.401024163866218288e-03,1.869851151385288457e+00
6.441030564890382233e-03,2.053533407295418556e+00
6.481036965914546179e-03,2.286092179927162960e+00
6.521043366938710124e-03,2.560625550675576179e+00
6.561049767962874070e-03,2.869454660061361295e+00
6.601056168987038016e-03,3.205682268729671325e+00
6.641062570011201961e-03,3.563880426868318185e+00
6.681068971035365907e-03,3.939580458183709499e+00
6.721075372059529852e-03,4.327947069703609095e+00
6.761081773083693798e-03,4.722494578003158416e+00
6.801088174107856876e-03,5.114672083738655672e+00
6.841094575132020822e-03,5.494630044620570253e+00
6.881100976156184768e-03,5.852788637934753346e+00
6.921107377180348713e-03,6.181364131691236885e+00
6.961113778204512659e-03,6.475041200760209392e+00
7.001120179228676604e-03,6.730482541555983467e+00
7.041126580252840550e-03,6.945043355487256598e+00
7.081132981277004496e-03,7.115511091107356911e+00
7.121139382301168441e-03,7.237658866417029380e+00
7.161145783325332387e-03,7.306908518247699824e+00
7.201152184349496332e-03,7.319738810843894328e+00
7.241158585373659411e-03,7.275033218114724143e+00
7.281164986397823356e-03,7.174594915362196623e+00
7.321171387421987302e-03,7.022539761645291811e+00
7.361177788446151248e-03,6.823924573039032104e+00
7.401184189470315193e-03,6.583399183784937492e+00
7.441190590494479139e-03,6.304637688386575789e+00
7.481196991518643084e-03,5.990831392553638501e+00
7.521203392542807030e-03,5.645894159534578627e+00
7.561209793566970976e-03,5.275610517015197232e+00
7.601216194591134921e-03,4.887991221524788266e+00
7.641222595615298867e-03,4.492565257086450714e+00
7.681228996639461945e-03,4.098956170143260636e+00
7.721235397663625891e-03,3.715501549736625275e+00
7.761241798687789836e-03,3.348639812006492189e+00
7.801248199711953782e-03,3.003333107752963027e+00
7.841254600736117727e-03,2.684189188161483663e+00
7.881261001760281673e-03,2.396543580893651715e+00
7.921267402784445619e-03,2.146798599917830064e+00
7.961273803808609564e-03,1.941762494864734512e+00
8.001280204832773510e-03,1.787325421599330388e+00
8.041286605856937456e-03,1.687200960491266999e+00
8.081293006881101401e-03,1.642425656957909874e+00
8.121299407905265347e-03,1.651869749687909117e+00
8.161305808929429292e-03,1.713430099574198451e+00
8.201312209953593238e-03,1.825192344904991604e+00
8.241318610977757184e-03,1.985885476663673099e+00
8.281325012001921129e-03,2.194382930125683639e+00
8.321331413026083340e-03,2.448574340641989533e+00
8.361337814050247286e-03,2.744306977515349022e+00
8.401344215074411231e-03,3.075058378068275200e+00
8.441350616098575177e-03,3.432577492072787617e+00
8.481357017122739123e-03,3.808171883364923183e+00
8.521363418146903068e-03,4.193951162682246547e+00
8.561369819171067014e-03,4.583374394922558714e+00
8.601376220195230959e-03,4.970865899777340502e+00
8.641382621219394905e-03,5.350812740724317784e+00
8.681389022243558851e-03,5.716616504776302676e+00
8.721395423267722796e-03,6.060433636570361493e+00
8.761401824291886742e-03,6.373828656158232242e+00
8.801408225316050687e-03,6.649025879247326465e+00
8.841414626340214633e-03,6.880093599915505287e+00
8.881421027364378579e-03,7.063433850485960619e+00
8.921427428388542524e-03,7.197354550450401511e+00
8.961433829412706470e-03,7.281030203979711679e+00
9.001440230436870416e-03,7.313502193883423708e+00
9.041446631461034361e-03,7.293330544648448210e+00
9.081453032485198307e-03,7.219112266973015224e+00
9.121459433509362252e-03,7.090562144988459714e+00
9.161465834533526198e-03,6.909514658079011440e+00
9.201472235557688409e-03,6.680246205470599108e+00
9.241478636581852354e-03,6.408908210514216997e+00
9.281485037606016300e-03,6.102372562239851916e+00
9.321491438630180246e-03,5.767121949686594640e+00
9.361497839654344191e-03,5.408777277055469845e+00
9.401504240678508137e-03,5.032469437059463147e+00
9.441510641702672083e-03,4.643761198297073456e+00
9.481517042726836028e-03,4.249500923280343123e+00
9.521523443750999974e-03,3.858031181589365310e+00
9.561529844775163919e-03,3.478554904214397503e+00
9.601536245799327865e-03,3.119954993714747271e+00
9.641542646823491811e-03,2.789681140387925140e+00
9.681549047847655756e-03,2.493275738130455998e+00
9.721555448871819702e-03,2.234736621118859290e+00
9.761561849895983647e-03,2.017429127516759735e+00
9.801568250920147593e-03,1.844948048304014154e+00
9.841574651944311539e-03,1.721372068042531067e+00
9.881581052968475484e-03,1.650721756950194852e+00
9.921587453992639430e-03,1.635908927302949012e+00
9.961593855016803375e-03,1.677770580507319975e+00
1.000160025604096732e-02,1.774737450277561246e+00
1.004160665706513127e-02,1.923323120846134104e+00
1.008161305808929348e-02,2.119149926288930175e+00
1.012161945911345742e-02,2.357927463426762849e+00
1.016162586013762137e-02,2.635842563297124297e+00
1.020163226116178531e-02,2.949177927432875546e+00
1.024163866218594926e-02,3.293438255566576434e+00
1.028164506321011321e-02,3.662556806887010463e+00
1.032165146423427715e-02,4.048711195046998945e+00
1.036165786525844110e-02,4.442923088975405221e+00
1.040166426628260504e-02,4.836161617251924838e+00
1.044167066730676899e-02,5.220381193093579064e+00
1.048167706833093293e-02,5.588968823169176758e+00
1.052168346935509688e-02,5.936425250125743958e+00
1.056168987037926082e-02,6.257552038676456263e+00
1.060169627140342477e-02,6.546700515635039075e+00
1.064170267242758872e-02,6.797593718424940867e+00
1.068170907345175266e-02,7.003887898718260452e+00
1.072171547447591661e-02,7.160199449508588110e+00
1.076172187550008055e-02,7.263044820131409729e+00
1.080172827652424450e-02,7.311186694835270394e+00
1.084173467754840844e-02,7.305220504929623715e+00
1.088174107857257239e-02,7.246670029683454750e+00
1.092174747959673634e-02,7.137134825448783637e+00
1.096175388062089855e-02,6.977986719457239140e+00
1.100176028164506249e-02,6.770776749394804561e+00
1.104176668266922644e-02,6.518086380784350986e+00
1.108177308369339038e-02,6.224288416001262370e+00
1.112177948471755433e-02,5.895729707045289203e+00
1.116178588574171827e-02,5.540180235204979375e+00
1.120179228676588222e-02,5.165815097525342736e+00
1.124179868779004617e-02,4.780260251264854432e+00
1.128180508881421011e-02,4.390186226899093214e+00
1.132181148983837406e-02,4.001605994587447590e+00
1.136181789086253800e-02,3.620617603869523471e+00
1.140182429188670195e-02,3.254072752778232491e+00
1.144183069291086589e-02,2.909699724190529135e+00
1.148183709393502984e-02,2.595533372479903900e+00
1.152184349495919378e-02,2.318914509316740258e+00
1.156184989598335773e-02,2.085575928028216008e+00
1.160185629700752168e-02,1.899284347341922086e+00
1.164186269803168562e-02,1.762186742747208212e+00
1.168186909905584957e-02,1.675605178181632793e+00
1.172187550008001351e-02,1.640773205092358467e+00
1.176188190110417746e-02,1.659054743393442610e+00
1.180188830212833967e-02,1.731502907762912269e+00
1.184189470315250362e-02,1.858014368912011216e+00
1.188190110417666756e-02,2.036580963311255044e+00
1.192190750520083151e-02,2.263091251897360046e+00
1.196191390622499545e-02,2.531820989181339687e+00
1.200192030724915940e-02,2.836358022546490609e+00
1.204192670827332334e-02,3.170464417159451376e+00
1.208193310929748729e-02,3.528427369754841614e+00
1.212193951032165123e-02,3.904760133979152670e+00
1.216194591134581518e-02,4.293501776240431056e+00
1.220195231236997913e-02,4.687602795893561769e+00
1.224195871339414307e-02,5.078834025182388245e+00
1.228196511441830702e-02,5.458349582134707667e+00
1.232197151544247096e-02,5.817651943532015757e+00
1.236197791646663491e-02,6.149472747362980662e+00
1.240198431749079885e-02,6.448132923704304353e+00
1.244199071851496280e-02,6.709249182701502612e+00
1.248199711953912674e-02,6.929031745250861185e+00
1.252200352056329069e-02,7.103649104845604967e+00
1.256200992158745464e-02,7.229085554608432496e+00
1.260201632261161858e-02,7.301617398433060124e+00
1.264202272363578253e-02,7.318661297208613803e+00
1.268202912465994474e-02,7.279521591704637196e+00
1.272203552568410868e-02,7.185614537810955049e+00
1.276204192670827263e-02,7.040044784691745328e+00
1.280204832773243658e-02,6.846777848988757853e+00
1.284205472875660052e-02,6.609876052518719902e+00
1.288206112978076447e-02,6.333214633850140274e+00
1.292206753080492841e-02,6.020801096081243919e+00
1.296207393182909236e-02,5.677457772617863441e+00
1.300208033285325630e-02,5.309408081613249841e+00
1.304208673387742025e-02,4.924358702019630663e+00
1.308209313490158419e-02,4.530961158393655097e+00
1.312209953592574814e-02,4.137895333803785825e+00
1.316210593694991209e-02,3.753033884233664796e+00
1.320211233797407603e-02,3.383094690703882357e+00
1.324211873899823998e-02,3.033900319642270471e+00
1.328212514002240392e-02,2.711008966014750055e+00
1.332213154104656787e-02,2.420268289890961100e+00
1.336213794207073181e-02,2.167895685666070715e+00
1.340214434309489576e-02,1.959973698225670802e+00
1.344215074411905970e-02,1.801599196878545195e+00
1.348215714514322365e-02,1.696134309131638096e+00
1.352216354616738760e-02,1.644954157447567011e+00
1.356216994719154981e-02,1.647803470216821831e+00
1.360217634821571375e-02,1.703527859441946068e+00
1.364218274923987770e-02,1.810738738905670386e+00
1.368218915026404164e-02,1.968023490006362897e+00
1.372219555128820559e-02,2.173592063718676748e+00
1.376220195231236954e-02,2.424592634035342975e+00
1.380220835333653348e-02,2.716531852484406429e+00
1.384221475436069743e-02,3.043181540605423230e+00
1.388222115538486137e-02,3.397075993723869036e+00
1.392222755640902532e-02,3.770366017895620647e+00
1.396223395743318926e-02,4.155595373597677167e+00
1.400224035845735321e-02,4.546018836560771881e+00
1.404224675948151715e-02,4.935355746271048005e+00
1.408225316050568110e-02,5.317206658255011931e+00
1.412225956152984505e-02,5.684557869962696408e+00
1.416226596255400899e-02,6.029744520353515824e+00
1.420227236357817294e-02,6.344970709134794440e+00
1.424227876460233688e-02,6.623155201080504817e+00
1.428228516562650083e-02,6.858677195505765489e+00
1.432229156665066477e-02,7.047651272411867396e+00
1.436229796767482872e-02,7.187630760443829203e+00
1.440230436869899266e-02,7.276965291205448771e+00
1.444231076972315488e-02,7.314229986431682207e+00
1.448231717074731882e-02,7.298089309571569316e+00
1.452232357177148277e-02,7.227691474762035106e+00
1.456232997279564671e-02,7.103367133493041052e+00
1.460233637381981066e-02,6.927217904753826261e+00
1.464234277484397460e-02,6.703235787734396212e+00
1.468234917586813855e-02,6.436860042913769675e+00
1.472235557689230250e-02,6.134197427647393397e+00
1.476236197791646644e-02,5.801317771889372921e+00
1.480236837894063039e-02,5.443981757662217369e+00
1.484237477996479433e-02,5.067895128672424754e+00
1.488238118098895828e-02,4.679268358623758672e+00
1.492238758201312222e-02,4.285277924287130169e+00
1.496239398303728617e-02,3.894081203692823401e+00
1.500240038406145011e-02,3.514297773388901369e+00
1.504240678508561406e-02,3.154181874304353705e+00
1.508241318610977801e-02,2.820891196575596283e+00
1.512241958713394195e-02,2.520200993177358129e+00
1.516242598815810590e-02,2.256753907765579825e+00
1.520243238918226984e-02,2.034627136536097503e+00
1.524243879020643379e-02,1.857820514718353300e+00
1.528244519123059773e-02,1.730325229915907759e+00
1.532245159225475994e-02,1.655688927159902235e+00
1.536245799327892389e-02,1.636297917707454364e+00
1.540246439430308784e-02,1.672772108934235336e+00
1.544247079532725178e-02,1.763811219884872106e+00
1.548247719635141573e-02,1.906576194824320725e+00
1.552248359737557967e-02,2.097387313624132776e+00
1.556248999839974362e-02,2.332347360772608180e+00
1.560249639942390756e-02,2.607554836345249871e+00
1.564250280044807151e-02,2.918824072972920458e+00
1.568250920147223545e-02,3.261127654108564311e+00
1.572251560249639940e-02,3.628146550564306683e+00
1.576252200352056335e-02,4.012255854994761783e+00
1.580252840454472729e-02,4.405023561877462690e+00
1.584253480556889124e-02,4.798003942090047325e+00
1.588254120659305518e-02,5.183439038602406512e+00
1.592254760761721913e-02,5.554539327455048969e+00
