Time (s),Voltage (V)
0.000000000000000000e+00,2.668336072689095229e+00
3.828483920367534339e-05,2.626438508525646309e+00
7.656967840735068678e-05,2.571986641202113955e+00
1.148545176110260302e-04,2.499418556674162684e+00
1.531393568147013736e-04,2.407685780182646340e+00
1.914241960183767305e-04,2.300498201867691161e+00
2.297090352220520603e-04,2.184712244723580721e+00
2.679938744257274173e-04,2.067685464181125976e+00
3.062787136294027471e-04,1.954815934979759362e+00
3.445635528330780769e-04,1.848298748641907574e+00
3.828483920367534610e-04,1.747485271712578392e+00
4.211332312404287908e-04,1.650459014960424131e+00
4.594180704441041207e-04,1.555921181771269701e+00
4.977029096477794505e-04,1.464439122954120265e+00
5.359877488514548345e-04,1.378530861060678792e+00
5.742725880551302186e-04,1.301692641065113509e+00
6.125574272588054942e-04,1.236991222033872351e+00
6.508422664624808783e-04,1.185991853252521100e+00
6.891271056661561539e-04,1.148534996307941425e+00
7.274119448698315379e-04,1.123379231393448752e+00
7.656967840735069220e-04,1.109271924075026616e+00
8.039816232771821976e-04,1.105827028548058033e+00
8.422664624808575817e-04,1.113752585775901416e+00
8.805513016845329657e-04,1.134363134056628475e+00
9.188361408882082413e-04,1.168705993659615583e+00
9.571209800918836254e-04,1.216813903474569303e+00
9.954058192955589010e-04,1.277487201210737666e+00
1.033690658499234393e-03,1.348688067112232547e+00
1.071975497702909669e-03,1.428287432073073626e+00
1.110260336906584945e-03,1.514730430853265863e+00
1.148545176110260437e-03,1.607263061223496603e+00
1.186830015313935713e-03,1.705631805590528405e+00
1.225114854517610988e-03,1.809468189152878992e+00
1.263399693721286264e-03,1.917733305362612883e+00
1.301684532924961757e-03,2.028541117736283983e+00
1.339969372128637032e-03,2.139448276575520946e+00
1.378254211332312308e-03,2.248031383922300286e+00
1.416539050535987800e-03,2.352421293726554730e+00
1.454823889739663076e-03,2.451506536194130170e+00
1.493108728943338352e-03,2.544720003110729323e+00
1.531393568147013844e-03,2.631562668576715502e+00
1.569678407350689120e-03,2.711158517106374788e+00
1.607963246554364395e-03,2.782101834145264796e+00
1.646248085758039888e-03,2.842678715541810508e+00
1.684532924961715163e-03,2.891327427036959996e+00
1.722817764165390439e-03,2.927071813663736588e+00
1.761102603369065931e-03,2.949688267590122592e+00
1.799387442572741207e-03,2.959527893685404809e+00
1.837672281776416483e-03,2.957114095351661920e+00
1.875957120980091975e-03,2.942757396614157805e+00
1.914241960183767251e-03,2.916408009436749715e+00
1.952526799387442526e-03,2.877820480187141872e+00
1.990811638591117802e-03,2.826922050405625608e+00
2.029096477794793078e-03,2.764162784753820823e+00
2.067381316998468787e-03,2.690643200155926618e+00
2.105666156202144063e-03,2.607948993105937863e+00
2.143950995405819338e-03,2.517791686551891672e+00
2.182235834609494614e-03,2.421660562872854250e+00
2.220520673813169889e-03,2.320676436412838939e+00
2.258805513016845165e-03,2.215714446194605447e+00
2.297090352220520874e-03,2.107705578793181989e+00
2.335375191424196150e-03,1.997926485504047500e+00
2.373660030627871426e-03,1.888099833635584313e+00
2.411944869831546701e-03,1.780241921704563079e+00
2.450229709035221977e-03,1.676341564322260336e+00
2.488514548238897253e-03,1.578048698112965997e+00
2.526799387442572528e-03,1.486540190714508824e+00
2.565084226646248237e-03,1.402623533216529328e+00
2.603369065849923513e-03,1.327000797725415016e+00
2.641653905053598789e-03,1.260525931851638415e+00
2.679938744257274064e-03,1.204298059001724708e+00
2.718223583460949340e-03,1.159533521393824707e+00
2.756508422664624616e-03,1.127289696399126573e+00
2.794793261868300325e-03,1.108198214566619155e+00
2.833078101071975601e-03,1.102356635842521637e+00
2.871362940275650876e-03,1.109433404646740451e+00
2.909647779479326152e-03,1.128917657544648678e+00
2.947932618683001427e-03,1.160365038352482614e+00
2.986217457886676703e-03,1.203498315319638134e+00
3.024502297090352412e-03,1.258110552045240693e+00
3.062787136294027688e-03,1.323835385990222768e+00
3.101071975497702964e-03,1.399925451166399215e+00
3.139356814701378239e-03,1.485172979579118868e+00
3.177641653905053515e-03,1.578022241257112546e+00
3.215926493108728790e-03,1.676812375279116640e+00
3.254211332312404500e-03,1.780016168253452324e+00
3.292496171516079775e-03,1.886346714432975524e+00
3.330781010719755051e-03,1.994684056076678536e+00
3.369065849923430327e-03,2.103879752952425797e+00
3.407350689127105602e-03,2.212567039153676252e+00
3.445635528330780878e-03,2.319098291627216479e+00
3.483920367534456154e-03,2.421655106622575104e+00
3.522205206738131863e-03,2.518475171631286091e+00
3.560490045941807138e-03,2.608073406653640181e+00
3.598774885145482414e-03,2.689340401587919427e+00
3.637059724349157690e-03,2.761474216477989962e+00
3.675344563552832965e-03,2.823798394878881624e+00
3.713629402756508241e-03,2.875583011634343045e+00
3.751914241960183950e-03,2.915980376640260108e+00
3.790199081163859226e-03,2.944117113058247082e+00
3.828483920367534502e-03,2.959291581553803230e+00
3.866768759571209777e-03,2.961164271495261069e+00
3.905053598774885053e-03,2.949833774251406027e+00
3.943338437978560762e-03,2.925758089233938541e+00
3.981623277182235604e-03,2.889570149419280476e+00
4.019908116385911313e-03,2.841895483637926212e+00
4.058192955589586155e-03,2.783275222538607263e+00
4.096477794793261865e-03,2.714233181078984813e+00
4.134762633996937574e-03,2.635440076081576155e+00
4.173047473200612416e-03,2.547871193640731224e+00
4.211332312404288125e-03,2.452858414297707235e+00
4.249617151607962967e-03,2.351999648273083832e+00
4.287901990811638676e-03,2.246971314466092107e+00
4.326186830015313518e-03,2.139344215074589606e+00
4.364471669218989228e-03,2.030498755713880499e+00
4.402756508422664937e-03,1.921675559036705838e+00
4.441041347626339779e-03,1.814117893624884070e+00
4.479326186830015488e-03,1.709209586207710574e+00
4.517611026033690330e-03,1.608516381438890308e+00
4.555895865237366039e-03,1.513696580527923219e+00
4.594180704441041749e-03,1.426323690896329044e+00
4.632465543644716591e-03,1.347714744588970781e+00
4.670750382848392300e-03,1.278853730505734365e+00
4.709035222052067142e-03,1.220443592295257673e+00
4.747320061255742851e-03,1.173045857742738951e+00
4.785604900459417693e-03,1.137217712511505940e+00
4.823889739663093403e-03,1.113560419489152409e+00
4.862174578866769112e-03,1.102647162278721948e+00
4.900459418070443954e-03,1.104870340325081024e+00
4.938744257274119663e-03,1.120295928263524088e+00
4.977029096477794505e-03,1.148608426604541100e+00
5.015313935681470214e-03,1.189177338087319180e+00
5.053598774885145056e-03,1.241206324047153142e+00
5.091883614088820766e-03,1.303880060336363833e+00
5.130168453292496475e-03,1.376427779445541733e+00
5.168453292496171317e-03,1.458073469722148019e+00
5.206738131699847026e-03,1.547910317946479930e+00
5.245022970903521868e-03,1.644781622660086873e+00
5.283307810107197577e-03,1.747246421667342897e+00
5.321592649310873287e-03,1.853658486829093510e+00
5.359877488514548129e-03,1.962321655025618394e+00
5.398162327718223838e-03,2.071641136942274919e+00
5.436447166921898680e-03,2.180194363917167699e+00
5.474732006125574389e-03,2.286693136630251200e+00
5.513016845329249231e-03,2.389872636843467291e+00
5.551301684532924940e-03,2.488384893964331379e+00
5.589586523736600650e-03,2.580770396824878521e+00
5.627871362940275492e-03,2.665534619333944644e+00
5.666156202143951201e-03,2.741294205370741199e+00
5.704441041347626043e-03,2.806916763910338730e+00
5.742725880551301752e-03,2.861582137412607363e+00
5.781010719754977462e-03,2.904738755294943964e+00
5.819295558958652304e-03,2.935989078298780530e+00
5.857580398162328013e-03,2.954977822877745908e+00
5.895865237366002855e-03,2.961352802964048347e+00
5.934150076569678564e-03,2.954823672451068806e+00
5.972434915773353406e-03,2.935285099322809454e+00
6.010719754977029115e-03,2.902932382169667314e+00
6.049004594180704825e-03,2.858301432884993165e+00
6.087289433384379667e-03,2.802208592622114747e+00
6.125574272588055376e-03,2.735623066266354098e+00
6.163859111791730218e-03,2.659542299789983133e+00
6.202143950995405927e-03,2.574936776428665475e+00
6.240428790199080769e-03,2.482788247749336819e+00
6.278713629402756478e-03,2.384189583895810483e+00
6.316998468606432188e-03,2.280437942516952088e+00
6.355283307810107030e-03,2.173056859409529640e+00
6.393568147013782739e-03,2.063724400795239777e+00
6.431852986217457581e-03,1.954139030365392937e+00
6.470137825421133290e-03,1.845890408275066674e+00
6.508422664624809000e-03,1.740398453532166601e+00
6.546707503828483841e-03,1.638943402090914603e+00
6.584992343032159551e-03,1.542756383514571228e+00
6.623277182235834393e-03,1.453105388091707972e+00
6.661562021439510102e-03,1.371315386842161699e+00
6.699846860643184944e-03,1.298701077620507460e+00
6.738131699846860653e-03,1.236442685049870871e+00
6.776416539050536363e-03,1.185468993588033371e+00
6.814701378254211205e-03,1.146407854373865165e+00
6.852986217457886914e-03,1.119625487270431430e+00
6.891271056661561756e-03,1.105325075613703634e+00
6.929555895865237465e-03,1.103642180644400561e+00
6.967840735068912307e-03,1.114678398765197143e+00
7.006125574272588016e-03,1.138452748426945993e+00
7.044410413476263726e-03,1.174799907178353919e+00
7.082695252679938568e-03,1.223276525059691089e+00
7.120980091883614277e-03,1.283132860901396555e+00
7.159264931087289119e-03,1.353369615897392020e+00
7.197549770290964828e-03,1.432851216688867391e+00
7.235834609494640537e-03,1.520415396523354890e+00
7.274119448698315379e-03,1.614922858979565445e+00
7.312404287901991089e-03,1.715227397903094531e+00
7.350689127105665931e-03,1.820094383063325383e+00
7.388973966309341640e-03,1.928126140077954576e+00
7.427258805513016482e-03,2.037748754641297122e+00
7.465543644716692191e-03,2.147278898273698111e+00
7.503828483920367901e-03,2.255042696494820476e+00
7.542113323124042742e-03,2.359488725254064612e+00
7.580398162327718452e-03,2.459241225131710618e+00
7.618683001531393294e-03,2.553074884415561296e+00
7.656967840735069003e-03,2.639838169314467020e+00
7.695252679938743845e-03,2.718381443375597506e+00
7.733537519142419554e-03,2.787542109250404021e+00
7.771822358346095264e-03,2.846204404101513763e+00
7.810107197549770106e-03,2.893406795541215715e+00
7.848392036753444947e-03,2.928441352691832922e+00
7.886676875957121524e-03,2.950893541801092645e+00
7.924961715160796366e-03,2.960604937032190520e+00
7.963246554364471208e-03,2.957585199451174596e+00
8.001531393568147785e-03,2.941927678581036876e+00
8.039816232771822627e-03,2.913778955498603107e+00
8.078101071975497469e-03,2.873379255725217796e+00
8.116385911179172311e-03,2.821147707137388050e+00
8.154670750382848887e-03,2.757759090534234847e+00
8.192955589586523729e-03,2.684162855830612759e+00
8.231240428790198571e-03,2.601528070336902143e+00
8.269525267993875148e-03,2.511140170626225299e+00
8.307810107197549990e-03,2.414302192659778523e+00
8.346094946401224832e-03,2.312289062860656053e+00
8.384379785604899674e-03,2.206371232941798599e+00
8.422664624808576250e-03,2.097882565118939446e+00
8.460949464012251092e-03,1.988281176838604614e+00
8.499234303215925934e-03,1.879156104570304908e+00
8.537519142419602511e-03,1.772164452800293555e+00
8.575803981623277353e-03,1.668924337083088183e+00
8.614088820826952195e-03,1.570914594958285226e+00
8.652373660030627037e-03,1.479428068777446592e+00
8.690658499234303613e-03,1.395593956384288514e+00
8.728943338437978455e-03,1.320444798896677208e+00
8.767228177641653297e-03,1.254978517831501383e+00
8.805513016845329874e-03,1.200170081662995214e+00
8.843797856049004716e-03,1.156918173319569920e+00
8.882082695252679558e-03,1.125951415175147075e+00
8.920367534456356134e-03,1.107743310061088504e+00
8.958652373660030976e-03,1.102480813299198559e+00
8.996937212863705818e-03,1.110101069539285668e+00
9.035222052067380660e-03,1.130372281013391600e+00
9.073506891271057237e-03,1.162970501232068798e+00
9.111791730474732079e-03,1.207508350753666804e+00
9.150076569678406921e-03,1.263501516298402905e+00
9.188361408882083498e-03,1.330296739477561330e+00
9.226646248085758339e-03,1.407008630876520838e+00
9.264931087289433181e-03,1.492508353183900072e+00
9.303215926493108023e-03,1.585477724221342255e+00
9.341500765696784600e-03,1.684505019831950667e+00
9.379785604900459442e-03,1.788175533250146110e+00
9.418070444104134284e-03,1.895114213412135262e+00
9.456355283307810861e-03,2.003966732633705394e+00
9.494640122511485703e-03,2.113341953046750543e+00
9.532924961715160544e-03,2.221761505151988558e+00
9.571209800918835386e-03,2.327657876633325795e+00
9.609494640122511963e-03,2.429433769908104335e+00
9.647779479326186805e-03,2.525559451555792201e+00
9.686064318529861647e-03,2.614662504253604247e+00
9.724349157733538224e-03,2.695568737158448247e+00
9.762633996937213066e-03,2.767281271408569054e+00
9.800918836140887908e-03,2.828920299187790643e+00
9.839203675344562749e-03,2.879667935595045858e+00
9.877488514548239326e-03,2.918758248753033691e+00
9.915773353751914168e-03,2.945524714918271947e+00
9.954058192955589010e-03,2.959482468609965000e+00
9.992343032159265587e-03,2.960401257907292027e+00
1.003062787136294043e-02,2.948329430312201627e+00
1.006891271056661527e-02,2.923556806351999438e+00
1.010719754977029011e-02,2.886538698558049454e+00
1.014548238897396669e-02,2.837824463256809260e+00
1.018376722817764153e-02,2.778029600468831628e+00
1.022205206738131637e-02,2.707863309004728603e+00
1.026033690658499295e-02,2.628189593576335081e+00
1.029862174578866779e-02,2.540079339796337266e+00
1.033690658499234263e-02,2.444815230328409417e+00
1.037519142419601921e-02,2.343838196076175606e+00
1.041347626339969405e-02,2.238657451709690438e+00
1.045176110260336889e-02,2.130766520897185767e+00
1.049004594180704374e-02,2.021603218811589997e+00
1.052833078101072031e-02,1.912565110807791458e+00
1.056661562021439515e-02,1.805059134464551462e+00
1.060490045941807000e-02,1.700544101786341189e+00
1.064318529862174657e-02,1.600529274278179148e+00
1.068147013782542142e-02,1.506518334044270047e+00
1.071975497702909626e-02,1.419920425197433556e+00
1.075803981623277110e-02,1.341969548502599308e+00
1.079632465543644768e-02,1.273689076911094231e+00
1.083460949464012252e-02,1.215912321180067313e+00
1.087289433384379736e-02,1.169338158849417830e+00
1.091117917304747394e-02,1.134581436877259986e+00
1.094946401225114878e-02,1.112182352128960661e+00
1.098774885145482362e-02,1.102564495827162316e+00
1.102603369065849846e-02,1.105962655915423642e+00
1.106431852986217504e-02,1.122360381064739565e+00
1.110260336906584988e-02,1.151472731420729811e+00
1.114088820826952472e-02,1.192784392666125237e+00
1.117917304747320130e-02,1.245622296801895734e+00
1.121745788667687614e-02,1.309223241757763612e+00
1.125574272588055098e-02,1.382761536086189569e+00
1.129402756508422583e-02,1.465326588137163100e+00
1.133231240428790240e-02,1.555870899664186346e+00
1.137059724349157724e-02,1.653167197566510316e+00
1.140888208269525209e-02,1.755808824576849503e+00
1.144716692189892866e-02,1.862262846253937232e+00
1.148545176110260350e-02,1.970955161992261839e+00
1.152373660030627835e-02,2.080348902013241741e+00
1.156202143950995492e-02,2.188981992665814502e+00
1.160030627871362977e-02,2.295454134329940388e+00
1.163859111791730461e-02,2.398383179175211488e+00
1.167687595712097945e-02,2.496368588511102438e+00
1.171516079632465603e-02,2.587995023158808028e+00
1.175344563552833087e-02,2.671885028643600890e+00
1.179173047473200571e-02,2.746780441642477921e+00
1.183001531393568229e-02,2.811614764138105738e+00
1.186830015313935713e-02,2.865543425764324859e+00
1.190658499234303197e-02,2.907922720154264784e+00
1.194486983154670681e-02,2.938257190410831221e+00
1.198315467075038339e-02,2.956152378720599216e+00
1.202143950995405823e-02,2.961305211613924904e+00
1.205972434915773307e-02,2.953540736329415051e+00
1.209800918836140965e-02,2.932875371003505371e+00
1.213629402756508449e-02,2.899570033941845981e+00
1.217457886676875933e-02,2.854141246903117324e+00
1.221286370597243418e-02,2.797321683474442100e+00
1.225114854517611075e-02,2.729989886282474743e+00
1.228943338437978559e-02,2.653105468186151228e+00
1.232771822358346044e-02,2.567681427369152836e+00
1.236600306278713701e-02,2.474802132992502290e+00
1.240428790199081185e-02,2.375667702811699922e+00
1.244257274119448670e-02,2.271629224016484816e+00
1.248085758039816154e-02,2.164184024406315299e+00
1.251914241960183811e-02,2.054923084764442631e+00
1.255742725880551296e-02,1.945450207745160087e+00
1.259571209800918780e-02,1.837308600872835429e+00
1.263399693721286438e-02,1.731945780163281157e+00
1.267228177641653922e-02,1.630725062951931426e+00
1.271056661562021406e-02,1.534964744703867012e+00
1.274885145482388890e-02,1.445970267738604154e+00
1.278713629402756548e-02,1.365029454430889633e+00
1.282542113323124032e-02,1.293363278369648040e+00
1.286370597243491516e-02,1.232051466076221180e+00
1.290199081163859174e-02,1.181967731825120715e+00
1.294027565084226658e-02,1.143754628119639571e+00
1.297856049004594142e-02,1.117845768811504881e+00
1.301684532924961800e-02,1.104516639942961342e+00
1.305513016845329284e-02,1.103929892541171576e+00
1.309341500765696768e-02,1.116145793176120060e+00
1.313169984686064252e-02,1.141090459907084353e+00
1.316998468606431910e-02,1.178500671279893997e+00
1.320826952526799394e-02,1.227879054025734717e+00
1.324655436447166879e-02,1.288488587619600390e+00
1.328483920367534536e-02,1.359393552592642163e+00
1.332312404287902020e-02,1.439528134011373028e+00
1.336140888208269505e-02,1.527759041007285878e+00
1.339969372128636989e-02,1.622913327970190167e+00
1.343797856049004646e-02,1.723764153621962114e+00
1.347626339969372131e-02,1.828992772425761970e+00
1.351454823889739615e-02,1.937159628168497960e+00
1.355283307810107273e-02,2.046712533560989478e+00
1.359111791730474757e-02,2.156038530780953977e+00
1.362940275650842241e-02,2.263540737044529738e+00
1.366768759571209725e-02,2.367707103442148409e+00
1.370597243491577383e-02,2.467142904937577264e+00
1.374425727411944867e-02,2.560559967945307491e+00
1.378254211332312351e-02,2.646740643422157646e+00
1.382082695252680009e-02,2.724508701186962867e+00
1.385911179173047493e-02,2.792734430160186854e+00
1.389739663093414977e-02,2.850380254170672867e+00
1.393568147013782461e-02,2.896568486944879339e+00
1.397396630934150119e-02,2.930638932693256038e+00
1.401225114854517603e-02,2.952168991905956830e+00
1.405053598774885087e-02,2.960949771886230764e+00
1.408882082695252745e-02,2.956936164438427994e+00
1.412710566615620229e-02,2.940202621337936417e+00
1.416539050535987714e-02,2.910931449772807600e+00
1.420367534456355198e-02,2.869439855897450098e+00
1.424196018376722855e-02,2.816227840253359815e+00
1.428024502297090340e-02,2.752015551338164556e+00
1.431852986217457824e-02,2.677743696129910145e+00
1.435681470137825481e-02,2.594531088781118378e+00
1.439509954058192966e-02,2.503607340041279272e+00
1.443338437978560450e-02,2.406252048265449250e+00
1.447166921898928107e-02,2.303766899759672970e+00
1.450995405819295592e-02,2.197486829121408913e+00
1.454823889739663076e-02,2.088812776394677773e+00
1.458652373660030560e-02,1.979235455694363210e+00
1.462480857580398218e-02,1.870324554008043316e+00
1.466309341500765702e-02,1.763677893244715689e+00
1.470137825421133186e-02,1.660848466457597317e+00
1.473966309341500844e-02,1.563280201620238286e+00
1.477794793261868328e-02,1.472278289678691454e+00
1.481623277182235812e-02,1.389019961643424672e+00
1.485451761102603296e-02,1.314588460392438707e+00
1.489280245022970954e-02,1.250000178936909068e+00
1.493108728943338438e-02,1.196199943289835144e+00
1.496937212863705922e-02,1.154019173460478997e+00
1.500765696784073580e-02,1.124114509422970531e+00
1.504594180704441064e-02,1.106917032253911248e+00
1.508422664624808548e-02,1.102617136232260542e+00
1.512251148545176033e-02,1.111190455390553611e+00
1.516079632465543690e-02,1.132447574960213421e+00
1.519908116385911175e-02,1.166077832147559556e+00
1.523736600306278659e-02,1.211662535680340325e+00
